1 1048
2 1099
3 1170
4 1238
5 1303
6 1348
7 1389
8 1482
9 1575
10 1613
11 1697
12 1793
13 1856
14 1909
15 1996
16 2049
17 2081
18 2166
19 2281
20 2407
21 2434
22 2509
23 2563
24 2605
25 2654
26 2710
27 2757
28 2862
29 2949
30 3102
31 3216
32 3285
33 3390
34 3449
35 3516
36 3589
37 3681
38 3749
39 3760
40 3788
41 3897
42 4023
43 4099
44 4180
45 4218
46 4331
47 4409
48 4471
49 4513
50 4583
51 4630
52 4687
53 4714
54 4747
55 4804
56 4816
57 4865
58 4938
59 5017
60 5092
61 5102
62 5146
63 5220
64 5370
65 5428
66 5610
67 5699
68 5810
69 5887
70 5978
71 6103
72 6171
73 6195
74 6248
75 6307
76 6349
77 6428
78 6503
79 6528
80 6560
81 6571
82 6594
83 6617
84 6633
85 6644
86 6666
87 6689
88 6699
89 6726
90 6743
91 6791
92 6800
93 6812
94 6824
95 6844
96 6863
97 6885
98 6916
99 6948
100 6976
101 6987
102 6990
103 7017
104 7028
105 7040
106 7054
107 7065
108 7082
109 7089
110 7098
111 7108
112 7118
113 7142
114 7156
115 7165
116 7175
117 7183
118 7193
119 7201
120 7213
121 7226
122 7227
123 7235
124 7240
125 7242
126 7244
127 7248
128 7254
129 7256
130 7260
131 7266
132 7274
133 7287
134 7292
135 7294
136 7299
137 7301
138 7312
139 7316
140 7326
141 7333
142 7342
143 7343
144 7348
145 7355
146 7363
147 7364
148 7370
149 7372
150 7372
151 7372
152 7372
153 7376
154 7381
155 7381
156 7381
157 7382
158 7383
159 7384
160 7385
161 7387
162 7392
163 7392
164 7393
165 7393
166 7395
167 7400
168 7400
169 7400
170 7401
171 7402
172 7403
173 7405
174 7406
175 7408
176 7409
177 7409
178 7409
179 7409
180 7410
181 7410
182 7412
183 7412
184 7412
185 7413
186 7415
