x
x
x
x
x
x
x
x
x
x
x
x
x
x
x
x
x
x
x
x
x
x
x
x
x
x
x
x
x
x
x
x
x
x
x
x
x
x
x
x
x
x
x
x
x
x
x
x
x
x
x
x
x
x
x
x
x
x
x
x
x
x
x
x
x
x
x
x
x
x
x
x
x
x
x
x
x
x
x
x
x
x
x
x
x
x
x
x
x
x
1082739
1082739
1082739
1082739
1082739
1082739
1082739
1082739
1082739
1082739
1082739
1082739
1082739
1082739
1082739
1082739
1082739
1082739
1082739
1082739
1082739
1082739
1082739
1082739
1082739
1082739
1082739
1082739
1082739
1082739
1082739
1082739
1082739
1082739
1082739
1082739
1082739
1082739
1082739
1082739
1082739
1082739
1082739
1082739
1082739
1082739
1082739
1082739
1082739
1082739
1082739
1082739
1082739
1082739
1082739
1082739
1082739
1082739
1082739
1082739
1082739
1082739
1082739
1082739
1082739
1082739
1082739
1082739
1082739
1082739
1082739
1082739
1082739
1082739
1082739
1082739
1082739
1082739
1082739
1082739
1082739
1082739
1082739
1082739
1082739
1082739
1082739
1082739
1082739
1082739
1082739
1082739
1082739
1082739
1082739
1082739
1082739
1082739
1082739
1082739
1082739
1082739
1082739
1082739
1082739
1082739
1082739
1082739
1082739
1082739
1082739
1082739
1082739
1082739
1082739
1082739
1082739
1082739
1082739
1082739
1082739
1082739
1082739
1082739
1082739
1082739
1082739
1082739
1082739
1082739
1082739
1082739
1082739
1082739
1082739
1082739
1082739
1082739
1082739
1082739
1082739
1082739
1082739
1082739
1082739
1082739
1082739
1082739
1082739
1082739
1082739
1082739
1082739
1082739
1082739
1082739
1082739
1082739
1082739
1082739
1082739
1082739
1082739
1082739
1082739
1082739
1082739
1082739
1082739
1082739
1082739
1082739
1082739
1082739
1082739
1082739
1082739
1082739
1082739
1082739
1082739
1082739
1082739
1082739
1082739
1082739
1082739
1082739
1082739
1082739
1082739
1082739
1082739
1082739
1082739
1082739
1082739
1082739
1082739
1082739
1082739
1082739
1082739
1082739
1082739
1082739
1082739
1082739
