x
x
x
x
x
x
x
x
x
x
x
x
x
x
x
x
x
x
x
x
x
x
x
x
x
x
x
x
x
x
x
x
x
x
x
x
x
x
x
x
x
x
x
x
x
x
x
x
x
x
x
x
x
x
x
x
x
x
x
x
x
1337560
1337560
1337560
1337560
1337560
1337560
1337560
1337560
1337560
1337560
1337560
1337560
1337560
1337560
1337560
1337560
1337560
1337560
1337560
1337560
1337560
1337560
1337560
1337560
1337560
1337560
1337560
1337560
1337560
1337560
1337560
1337560
1337560
1337560
1337560
1337560
1337560
1337560
1337560
1337560
1337560
1337560
1337560
1337560
1337560
1337560
1337560
1337560
1337560
1337560
1337560
1337560
1337560
1337560
1337560
1337560
1337560
1337560
1337560
1337560
1337560
1337560
1337560
1337560
1337560
1337560
1337560
1337560
1337560
1337560
1337560
1337560
1337560
1337560
1337560
1337560
1337560
1337560
1337560
1337560
1337560
1337560
1337560
1337560
1337560
1337560
1337560
1337560
1337560
1337560
1337560
1337560
1337560
1337560
1337560
1337560
1337560
1337560
1337560
1337560
1337560
1337560
1337560
1337560
1337560
1337560
1337560
1337560
1337560
1337560
1337560
1337560
1337560
1337560
1337560
1337560
1337560
1337560
1337560
1337560
1337560
1337560
1337560
1337560
1337560
1337560
1337560
1337560
1337560
1337560
1337560
1337560
1337560
1337560
1337560
1337560
1337560
1337560
1337560
1337560
1337560
1337560
1337560
1337560
1337560
1337560
1337560
1337560
1337560
1337560
1337560
1337560
1337560
1337560
1337560
1337560
1337560
1337560
1337560
1337560
1337560
1337560
1337560
1337560
1337560
1337560
1337560
1337560
1337560
1337560
1337560
1337560
1337560
1337560
1337560
1337560
1337560
1337560
1337560
1337560
1337560
1337560
1337560
1337560
1337560
1337560
1337560
1337560
1337560
1337560
1337560
1337560
1337560
1337560
1337560
1337560
1337560
1337560
1337560
1337560
1337560
1337560
1337560
1337560
1337560
1337560
1337560
1337560
1337560
1337560
1337560
1337560
1337560
1337560
1337560
1337560
1337560
1337560
1337560
1337560
1337560
1337560
1337560
1337560
1337560
1337560
1337560
1337560
1337560
1337560
1337560
1337560
1337560
1337560
1337560
1337560
1337560
