1 312
2 312
3 405
4 405
5 664
6 678
7 690
8 756
9 788
10 788
11 907
12 1092
13 1266
14 1288
15 1307
16 1410
17 1430
18 1462
19 1481
20 1601
21 1683
22 1726
23 1774
24 1814
25 1830
26 1856
27 1881
28 1975
29 2149
30 2344
31 2408
32 2419
33 2464
34 2515
35 2538
36 2581
37 2716
38 2828
39 2971
40 3060
41 3138
42 3281
43 3444
44 3520
45 3593
46 3640
47 3726
48 3770
49 3770
50 3897
51 3941
52 3988
53 4052
54 4070
55 4085
56 4127
57 4146
58 4218
59 4287
60 4336
61 4422
62 4492
63 4513
64 4528
65 4620
66 4657
67 4809
68 4865
69 4957
70 5043
71 5139
72 5191
73 5243
74 5454
75 5589
76 5690
77 5798
78 5898
79 6005
80 6052
81 6096
82 6145
83 6517
84 6234
85 6287
86 6332
87 6360
88 6380
89 6422
90 6437
91 6479
92 6499
93 6509
94 6536
95 6557
96 6579
97 6593
98 6609
99 6647
100 6668
101 6679
102 6705
103 6726
104 6747
105 6780
106 6802
107 6833
108 6858
109 6894
110 6921
111 6945
112 6955
113 6965
114 6971
115 6978
116 6988
117 7006
118 7019
119 7035
120 7056
121 7066
122 7080
123 7091
124 7097
125 7112
126 7116
127 7127
128 7130
129 7134
130 7141
131 7150
132 7155
133 7158
134 7160
135 7163
136 7168
137 7180
138 7189
139 7196
140 7204
141 7211
142 7213
143 7216
144 7221
145 7225
146 7227
147 7236
148 7244
149 7253
150 7257
151 7260
152 7263
153 7265
154 7270
155 7276
156 7282
157 7284
158 7287
159 7292
160 7295
161 7297
162 7299
163 7301
164 7303
165 7305
166 7307
167 7309
168 7309
169 7310
170 7310
171 7313
172 7316
173 7316
174 7316
175 7321
176 7322
177 7322
178 7322
179 7323
180 7323
181 7324
182 7326
183 7327
184 7329
185 7330
186 7330
