1 1337560
2 1337560
3 1337560
4 1337560
5 1337560
6 1337560
7 1337560
8 1337560
9 1337560
10 1337560
11 1337560
12 1337560
13 1337560
14 1337560
15 1337560
16 1337560
17 1337560
18 1337560
19 1337560
20 1337560
21 1337560
22 1337560
23 1337560
24 1337560
25 1337560
26 1337560
27 1337560
28 1337560
29 1337560
30 1337560
31 1337560
32 1337560
33 1337560
34 1337560
35 1337560
36 1337560
37 1337560
38 1337560
39 1337560
40 1337560
41 1337560
42 1337560
43 1337560
44 1337560
45 1337560
46 1337560
47 1337560
48 1337560
49 1337560
50 1337560
51 1337560
52 1337560
53 1337560
54 1337560
55 1337560
56 1337560
57 1337560
58 1337560
59 1337560
60 1337560
61 1337560
62 1337560
63 1337560
64 1337560
65 1337560
66 1337560
67 1337560
68 1337560
69 1337560
70 1337560
71 1337560
72 1337560
73 1337560
74 1337560
75 1337560
76 1337560
77 1337560
78 1337560
79 1337560
80 1337560
81 1337560
82 1337560
83 1337560
84 1337560
85 1337560
86 1337560
87 1337560
88 1337560
89 1337560
90 1337560
91 1337560
92 1337560
93 1337560
94 1337560
95 1337560
96 1337560
97 1337560
98 1337560
99 1337560
100 1337560
101 1337560
102 1337560
103 1337560
104 1337560
105 1337560
106 1337560
107 1337560
108 1337560
109 1337560
110 1337560
111 1337560
112 1337560
113 1337560
114 1337560
115 1337560
116 1337560
117 1337560
118 1337560
119 1337560
120 1337560
121 1337560
122 1337560
123 1337560
124 1337560
125 1337560
126 1337560
127 1337560
128 1337560
129 1337560
130 1337560
131 1337560
132 1337560
133 1337560
134 1337560
135 1337560
136 1337560
137 1337560
138 1337560
139 1337560
140 1337560
141 1337560
142 1337560
143 1337560
144 1337560
145 1337560
146 1337560
147 1337560
148 1337560
149 1337560
150 1337560
151 1337560
152 1337560
153 1337560
154 1337560
155 1337560
156 1337560
157 1337560
158 1337560
159 1337560
160 1337560
161 1337560
162 1337560
163 1337560
164 1337560
165 1337560
166 1337560
167 1337560
168 1337560
169 1337560
170 1337560
171 1337560
172 1337560
173 1337560
174 1337560
175 1337560
176 1337560
177 1337560
178 1337560
179 1337560
180 1337560
181 1337560
182 1337560
183 1337560
184 1337560
185 1337560
186 1337560
187 1337560
188 1337560
189 1337560
190 1337560
191 1337560
192 1337560
193 1337560
194 1337560
195 1337560
196 1337560
197 1337560
198 1337560
199 1337560
200 1337560
201 1337560
202 1337560
203 1337560
204 1337560
205 1337560
206 1337560
207 1337560
208 1337560
209 1337560
210 1337560
211 1337560
212 1337560
213 1337560
214 1337560
215 1337560
