1 1082739
2 1082739
3 1082739
4 1082739
5 1082739
6 1082739
7 1082739
8 1082739
9 1082739
10 1082739
11 1082739
12 1082739
13 1082739
14 1082739
15 1082739
16 1082739
17 1082739
18 1082739
19 1082739
20 1082739
21 1082739
22 1082739
23 1082739
24 1082739
25 1082739
26 1082739
27 1082739
28 1082739
29 1082739
30 1082739
31 1082739
32 1082739
33 1082739
34 1082739
35 1082739
36 1082739
37 1082739
38 1082739
39 1082739
40 1082739
41 1082739
42 1082739
43 1082739
44 1082739
45 1082739
46 1082739
47 1082739
48 1082739
49 1082739
50 1082739
51 1082739
52 1082739
53 1082739
54 1082739
55 1082739
56 1082739
57 1082739
58 1082739
59 1082739
60 1082739
61 1082739
62 1082739
63 1082739
64 1082739
65 1082739
66 1082739
67 1082739
68 1082739
69 1082739
70 1082739
71 1082739
72 1082739
73 1082739
74 1082739
75 1082739
76 1082739
77 1082739
78 1082739
79 1082739
80 1082739
81 1082739
82 1082739
83 1082739
84 1082739
85 1082739
86 1082739
87 1082739
88 1082739
89 1082739
90 1082739
91 1082739
92 1082739
93 1082739
94 1082739
95 1082739
96 1082739
97 1082739
98 1082739
99 1082739
100 1082739
101 1082739
102 1082739
103 1082739
104 1082739
105 1082739
106 1082739
107 1082739
108 1082739
109 1082739
110 1082739
111 1082739
112 1082739
113 1082739
114 1082739
115 1082739
116 1082739
117 1082739
118 1082739
119 1082739
120 1082739
121 1082739
122 1082739
123 1082739
124 1082739
125 1082739
126 1082739
127 1082739
128 1082739
129 1082739
130 1082739
131 1082739
132 1082739
133 1082739
134 1082739
135 1082739
136 1082739
137 1082739
138 1082739
139 1082739
140 1082739
141 1082739
142 1082739
143 1082739
144 1082739
145 1082739
146 1082739
147 1082739
148 1082739
149 1082739
150 1082739
151 1082739
152 1082739
153 1082739
154 1082739
155 1082739
156 1082739
157 1082739
158 1082739
159 1082739
160 1082739
161 1082739
162 1082739
163 1082739
164 1082739
165 1082739
166 1082739
167 1082739
168 1082739
169 1082739
170 1082739
171 1082739
172 1082739
173 1082739
174 1082739
175 1082739
176 1082739
177 1082739
178 1082739
179 1082739
180 1082739
181 1082739
182 1082739
183 1082739
184 1082739
185 1082739
186 1082739
